#data for Figs. 1(c) and 1(d)
#Parameters: J_perp = J_parallel = 5t

#tau: evolution time

#Delta_rms: root-mean-square of Delta = (x1 - x2)/2
#Delta_std: standard error on Delta_rms estimated from sampling 

#X_rms: root-mean-square of X = (x1 + x2)/2
#X_std: standard error on X_rms estimated from sampling

#corr(x1,x2): correlation coefficient of x1, x2. 
#std on corr(x1,x2) estimated from sampling.

tau 	 Delta_rms 	 Delta_std 	  	 X_rms	 	 X_std		corr(x1,x2)  	 std on corr(x1,x2) 

0.0 	 0.000000 	 0.000000000 	 0.000000 	 0.000000000 	 0.000000000 	 0.0 
0.2 	 0.198408 	 4.44675e-05 	 0.198499 	 3.81007e-05 	 0.000458929 	 0.000181604 
0.4 	 0.386727 	 0.000384583 	 0.389028 	 0.000222963 	 0.00594476 	 0.00241823 
0.6 	 0.55485 	 0.00133866 	 0.566759 	 0.000556386 	 0.0213235 	 0.00910218 
0.8 	 0.698238 	 0.00295296 	 0.728436 	 0.00125981 	 0.0425835 	 0.0194343 
1 	 0.820064 	 0.00487362 	 0.871547 	 0.00248678 	 0.0612785 	 0.0300123 
1.2 	 0.924878 	 0.00675484 	 0.996824 	 0.00398264 	 0.0753757 	 0.0383344 
1.4 	 1.01381 	 0.00854337 	 1.10814 	 0.00542547 	 0.0894521 	 0.0441176 
1.6 	 1.08701 	 0.0102945 	 1.20879 	 0.00668348 	 0.106652 	 0.0480828 
1.8 	 1.14708 	 0.0119952 	 1.29959 	 0.00779093 	 0.12523 	 0.0508053 
2 	 1.19826 	 0.0135875 	 1.38048 	 0.00883368 	 0.141857 	 0.0526719 
2.2 	 1.24344 	 0.0150384 	 1.45267 	 0.00989492 	 0.155674 	 0.0541774 
2.4 	 1.28331 	 0.0163522 	 1.51858 	 0.0109969 	 0.168274 	 0.0557425 
2.6 	 1.31811 	 0.0175059 	 1.5799 	 0.0120425 	 0.180797 	 0.0571707 
2.8 	 1.34883 	 0.0184292 	 1.63659 	 0.0129096 	 0.192645 	 0.0580119 
3 	 1.37667 	 0.0190233 	 1.68788 	 0.0136229 	 0.202649 	 0.0582281 
3.2 	 1.4021 	 0.0192031 	 1.73353 	 0.0143351 	 0.210532 	 0.0579817 
3.4 	 1.42469 	 0.0190386 	 1.77417 	 0.0151351 	 0.217135 	 0.0574791 
3.6 	 1.4441 	 0.0187673 	 1.8107 	 0.0159676 	 0.223365 	 0.0570116 
3.8 	 1.46085 	 0.0185667 	 1.84384 	 0.0167215 	 0.229397 	 0.0566427 
4 	 1.47586 	 0.0184186 	 1.87422 	 0.0173067 	 0.235028 	 0.0560789 
4.2 	 1.48994 	 0.0182285 	 1.9026 	 0.017657 	 0.240147 	 0.0549777 
4.4 	 1.50381 	 0.017962 	 1.92967 	 0.017753 	 0.244654 	 0.0533352 
4.6 	 1.51804 	 0.0176287 	 1.95579 	 0.0176427 	 0.248403 	 0.0514208 
4.8 	 1.53257 	 0.0172495 	 1.98118 	 0.0174056 	 0.251528 	 0.0494517 
5 	 1.5466 	 0.0168826 	 2.00597 	 0.0171098 	 0.254614 	 0.0475077 
5.2 	 1.55922 	 0.0166066 	 2.03016 	 0.0168078 	 0.258217 	 0.045645 
5.4 	 1.57017 	 0.0164815 	 2.05358 	 0.0165591 	 0.26241 	 0.0440787 
5.6 	 1.57968 	 0.0165661 	 2.07624 	 0.0164191 	 0.26704 	 0.043239 
5.8 	 1.58823 	 0.0168997 	 2.09857 	 0.0163986 	 0.272019 	 0.043465 
6 	 1.59662 	 0.0174224 	 2.12095 	 0.0164545 	 0.277035 	 0.0446045 
6.2 	 1.60587 	 0.0179965 	 2.1432 	 0.0165128 	 0.281417 	 0.0460924 
6.4 	 1.61654 	 0.0185012 	 2.16476 	 0.016508 	 0.284617 	 0.0473963 
6.6 	 1.62834 	 0.0188797 	 2.18531 	 0.0164152 	 0.286685 	 0.0483588 
6.8 	 1.6404 	 0.0191599 	 2.20505 	 0.016243 	 0.288218 	 0.049215 
7 	 1.65193 	 0.0194175 	 2.2244 	 0.0160199 	 0.289847 	 0.0502344 
7.2 	 1.66274 	 0.019687 	 2.24357 	 0.0157928 	 0.291771 	 0.0513536 
7.4 	 1.67302 	 0.019941 	 2.26253 	 0.0156093 	 0.293865 	 0.052258 
7.6 	 1.68279 	 0.0201474 	 2.28122 	 0.015507 	 0.296081 	 0.0527478 
7.8 	 1.6919 	 0.0203025 	 2.29967 	 0.0155197 	 0.298515 	 0.052908 
8 	 1.70028 	 0.0204205 	 2.31793 	 0.0156661 	 0.301202 	 0.0529374 
8.2 	 1.70803 	 0.0205372 	 2.33601 	 0.015937 	 0.304105 	 0.0529895 
8.4 	 1.71504 	 0.0207231 	 2.35385 	 0.0163126 	 0.307269 	 0.0532197 
8.6 	 1.72115 	 0.0210269 	 2.37128 	 0.0167819 	 0.310714 	 0.0537379 
8.8 	 1.72665 	 0.0213968 	 2.38803 	 0.0173333 	 0.31418 	 0.0544108 
9 	 1.73208 	 0.0216929 	 2.40396 	 0.0179339 	 0.317312 	 0.0548372 
9.2 	 1.73765 	 0.0217979 	 2.41918 	 0.0185428 	 0.320046 	 0.0546755 
9.4 	 1.74329 	 0.0216984 	 2.43378 	 0.0191537 	 0.322444 	 0.0539961 
9.6 	 1.74902 	 0.0214687 	 2.44757 	 0.0197917 	 0.324434 	 0.0532329 
9.8 	 1.75478 	 0.0212294 	 2.46049 	 0.0204578 	 0.32606 	 0.0528305 
10 	 1.76027 	 0.02109 	 2.47285 	 0.0211067 	 0.327619 	 0.0529103 
10.2 	 1.76532 	 0.0210765 	 2.48508 	 0.0216816 	 0.329369 	 0.0532022 
10.4 	 1.77008 	 0.0211382 	 2.49739 	 0.0221451 	 0.331315 	 0.0533295 
10.6 	 1.77491 	 0.0212263 	 2.50978 	 0.0224809 	 0.333274 	 0.0531133 
10.8 	 1.78009 	 0.0213214 	 2.52214 	 0.0226928 	 0.335062 	 0.0525837 
11 	 1.78565 	 0.0214142 	 2.53434 	 0.0228089 	 0.336609 	 0.0518589 
11.2 	 1.79143 	 0.0215066 	 2.54619 	 0.0228624 	 0.33792 	 0.0510721 
11.4 	 1.79715 	 0.0216231 	 2.55749 	 0.0228543 	 0.339072 	 0.0503298 
11.6 	 1.8024 	 0.0217639 	 2.56825 	 0.0227645 	 0.340265 	 0.0496381 
11.8 	 1.8067 	 0.0218655 	 2.57868 	 0.0225981 	 0.341802 	 0.0488984 
12 	 1.80968 	 0.0218733 	 2.58908 	 0.0223861 	 0.343942 	 0.0480655 
12.2 	 1.81151 	 0.0218091 	 2.59964 	 0.0221721 	 0.346671 	 0.0472494 
12.4 	 1.8128 	 0.0217215 	 2.61032 	 0.0220217 	 0.349666 	 0.0465874 
12.6 	 1.81412 	 0.0216354 	 2.62099 	 0.0219994 	 0.352601 	 0.0461324 
12.8 	 1.81559 	 0.0215548 	 2.63159 	 0.0221196 	 0.355405 	 0.0458781 
13 	 1.8171 	 0.0214628 	 2.64217 	 0.0223408 	 0.358141 	 0.0457869 
13.2 	 1.81874 	 0.021343 	 2.65267 	 0.0226033 	 0.360763 	 0.0458159 
13.4 	 1.82074 	 0.0211926 	 2.66299 	 0.0228629 	 0.363124 	 0.0458892 
13.6 	 1.82312 	 0.0210023 	 2.67301 	 0.0231006 	 0.365181 	 0.0458772 
13.8 	 1.82561 	 0.0207627 	 2.68276 	 0.0233164 	 0.367087 	 0.0456958 
14 	 1.82785 	 0.0204744 	 2.69224 	 0.0235212 	 0.369005 	 0.045335 
14.2 	 1.82989 	 0.0201318 	 2.70135 	 0.0237341 	 0.370886 	 0.0447882 
14.4 	 1.83214 	 0.0197251 	 2.70996 	 0.0239822 	 0.372484 	 0.0440703 
14.6 	 1.83509 	 0.019267 	 2.71802 	 0.0242893 	 0.373563 	 0.0432724 
14.8 	 1.83882 	 0.0188152 	 2.72562 	 0.0246488 	 0.374119 	 0.0425248 
15 	 1.84306 	 0.0184539 	 2.73303 	 0.0250252 	 0.374379 	 0.0419075 
15.2 	 1.84743 	 0.0182503 	 2.74055 	 0.0253811 	 0.374646 	 0.0414181 
15.4 	 1.85155 	 0.0182369 	 2.7484 	 0.025688 	 0.375166 	 0.0410368 
15.6 	 1.85511 	 0.0183837 	 2.75655 	 0.0259375 	 0.376068 	 0.0407542 
15.8 	 1.85799 	 0.0185855 	 2.7648 	 0.0261516 	 0.377323 	 0.0405266 
16 	 1.86025 	 0.018762 	 2.77292 	 0.0263642 	 0.378809 	 0.0403427 
16.2 	 1.86204 	 0.0189414 	 2.78082 	 0.026594 	 0.380433 	 0.0403167 
16.4 	 1.8635 	 0.019187 	 2.78866 	 0.0268432 	 0.382177 	 0.0405559 
16.6 	 1.86486 	 0.0194939 	 2.79663 	 0.0271015 	 0.384004 	 0.0409806 
16.8 	 1.86641 	 0.0197922 	 2.8047 	 0.0273439 	 0.385769 	 0.0413541 
17 	 1.86837 	 0.0200171 	 2.81263 	 0.0275463 	 0.387288 	 0.0414939 
17.2 	 1.87081 	 0.0201498 	 2.82016 	 0.0277139 	 0.388461 	 0.0414325 
17.4 	 1.87355 	 0.0201844 	 2.82717 	 0.0278823 	 0.389314 	 0.0413125 
17.6 	 1.87635 	 0.0201009 	 2.83375 	 0.0280855 	 0.389982 	 0.041213 
17.8 	 1.879 	 0.0199031 	 2.8401 	 0.0283301 	 0.390619 	 0.0411737 
18 	 1.88148 	 0.019635 	 2.84641 	 0.0285983 	 0.391295 	 0.0412481 
18.2 	 1.88399 	 0.0193353 	 2.85275 	 0.0288555 	 0.391955 	 0.0414173 
18.4 	 1.88674 	 0.0190139 	 2.85903 	 0.0290619 	 0.392489 	 0.0415609 
18.6 	 1.88978 	 0.0186881 	 2.86504 	 0.0292031 	 0.39283 	 0.041596 
18.8 	 1.89293 	 0.0184102 	 2.87063 	 0.0293078 	 0.39301 	 0.0415762 
19 	 1.89592 	 0.0182269 	 2.87587 	 0.0294242 	 0.393169 	 0.0416038 
19.2 	 1.89852 	 0.0181377 	 2.88102 	 0.0295805 	 0.393489 	 0.0416955 
19.4 	 1.90066 	 0.0181264 	 2.88636 	 0.0297849 	 0.394074 	 0.0418052 
19.6 	 1.9025 	 0.0182029 	 2.89203 	 0.0300481 	 0.394898 	 0.0419318 
19.8 	 1.90426 	 0.0183866 	 2.89803 	 0.0303706 	 0.395859 	 0.0421007 
20 	 1.90608 	 0.0186614 	 2.90433 	 0.0307193 	 0.39689 	 0.04229 
20.2 	 1.90793 	 0.0189685 	 2.91089 	 0.031054 	 0.397985 	 0.04246 
20.4 	 1.90975 	 0.0192563 	 2.91757 	 0.0313561 	 0.399131 	 0.0426134 
20.6 	 1.91156 	 0.019508 	 2.92414 	 0.0316248 	 0.400242 	 0.0427564 
20.8 	 1.91351 	 0.0197103 	 2.93035 	 0.0318737 	 0.40118 	 0.0428292 
21 	 1.91563 	 0.0198484 	 2.93606 	 0.0321273 	 0.401883 	 0.0427489 
21.2 	 1.91775 	 0.0199418 	 2.94139 	 0.0324044 	 0.402475 	 0.0425355 
21.4 	 1.91961 	 0.020043 	 2.94665 	 0.0327067 	 0.403148 	 0.0423472 
21.6 	 1.92126 	 0.020181 	 2.95209 	 0.0330169 	 0.40396 	 0.0423286 
21.8 	 1.92295 	 0.0203118 	 2.95774 	 0.0333036 	 0.404808 	 0.0424475 
22 	 1.92493 	 0.0203235 	 2.96354 	 0.03354 	 0.405553 	 0.0425046 
22.2 	 1.92731 	 0.0201184 	 2.96942 	 0.0337195 	 0.406127 	 0.0422785 
22.4 	 1.92997 	 0.0197122 	 2.97538 	 0.0338543 	 0.40658 	 0.0417004 
22.6 	 1.93265 	 0.019232 	 2.98153 	 0.0339619 	 0.407079 	 0.0409014 
22.8 	 1.93508 	 0.0188199 	 2.98793 	 0.0340399 	 0.407771 	 0.0400888 
23 	 1.93724 	 0.0185516 	 2.99447 	 0.0340623 	 0.408647 	 0.0394105 
23.2 	 1.93924 	 0.018416 	 3.00096 	 0.0340138 	 0.40959 	 0.0389212 
23.4 	 1.94117 	 0.0183559 	 3.00726 	 0.033916 	 0.410521 	 0.0386439 
23.6 	 1.94302 	 0.0183205 	 3.01331 	 0.0338029 	 0.411414 	 0.0386215 
23.8 	 1.94482 	 0.0182803 	 3.01906 	 0.0336779 	 0.412234 	 0.0388713 
24 	 1.94674 	 0.0182158 	 3.02451 	 0.0335121 	 0.412907 	 0.0393329 
24.2 	 1.94895 	 0.0181029 	 3.0298 	 0.0332917 	 0.413404 	 0.0398925 
24.4 	 1.9514 	 0.0179277 	 3.03522 	 0.0330455 	 0.413825 	 0.0404408 
24.6 	 1.95392 	 0.0177305 	 3.04093 	 0.0328183 	 0.414287 	 0.0409527 
24.8 	 1.95653 	 0.0175914 	 3.0468 	 0.0326286 	 0.414755 	 0.0414498 
25 	 1.95935 	 0.017569 	 3.0525 	 0.0324612 	 0.415104 	 0.0418815 
25.2 	 1.96225 	 0.0176882 	 3.05783 	 0.0323021 	 0.415344 	 0.0421933 
25.4 	 1.96483 	 0.0179565 	 3.06281 	 0.0321669 	 0.415651 	 0.0424577 
25.6 	 1.96671 	 0.01835 	 3.06757 	 0.0320863 	 0.416201 	 0.0427891 
25.8 	 1.96783 	 0.0187881 	 3.07217 	 0.0320923 	 0.417021 	 0.0432102 
26 	 1.96838 	 0.0191522 	 3.07664 	 0.0322168 	 0.41802 	 0.0436636 
26.2 	 1.96853 	 0.0193406 	 3.08109 	 0.032469 	 0.419136 	 0.0440726 
26.4 	 1.96832 	 0.0193078 	 3.08566 	 0.0328146 	 0.420389 	 0.0443552 
26.6 	 1.96777 	 0.019077 	 3.09038 	 0.033183 	 0.421794 	 0.0444277 
26.8 	 1.96708 	 0.0187168 	 3.09506 	 0.0334992 	 0.423245 	 0.0442281 
27 	 1.96664 	 0.0182964 	 3.09957 	 0.0337294 	 0.424551 	 0.0437783 
27.2 	 1.96677 	 0.0178867 	 3.10389 	 0.0338956 	 0.425584 	 0.043222 
27.4 	 1.96757 	 0.0175677 	 3.10809 	 0.034044 	 0.426318 	 0.0427318 
27.6 	 1.96904 	 0.0173874 	 3.1121 	 0.0342113 	 0.426734 	 0.0423957 
27.8 	 1.97108 	 0.0173459 	 3.11578 	 0.0344097 	 0.42684 	 0.0422143 
28 	 1.97334 	 0.0174271 	 3.11917 	 0.0346286 	 0.426784 	 0.0421725 
28.2 	 1.97533 	 0.0176111 	 3.12242 	 0.0348455 	 0.426811 	 0.042287 
28.4 	 1.97674 	 0.0178634 	 3.12572 	 0.0350325 	 0.427096 	 0.042576 
28.6 	 1.97762 	 0.0181401 	 3.1292 	 0.0351667 	 0.427647 	 0.0430095 
28.8 	 1.97828 	 0.0184079 	 3.1329 	 0.0352402 	 0.42835 	 0.0435043 
29 	 1.979 	 0.0186373 	 3.13688 	 0.0352613 	 0.429102 	 0.0439398 
29.2 	 1.97992 	 0.0187861 	 3.14117 	 0.035253 	 0.429849 	 0.0441949 
29.4 	 1.98113 	 0.0188287 	 3.1457 	 0.0352485 	 0.430533 	 0.0441895 
29.6 	 1.98272 	 0.0188109 	 3.15037 	 0.0352744 	 0.431095 	 0.0439314 
29.8 	 1.98468 	 0.0188439 	 3.15506 	 0.0353379 	 0.431517 	 0.0435629 
30 	 1.98681 	 0.0190208 	 3.15963 	 0.0354195 	 0.43185 	 0.0432767 
30.2 	 1.98878 	 0.0193387 	 3.16393 	 0.0354835 	 0.432199 	 0.0431698 
30.4 	 1.99027 	 0.0196919 	 3.16787 	 0.0355115 	 0.432648 	 0.0432345 
30.6 	 1.99127 	 0.019938 	 3.1715 	 0.035511 	 0.433206 	 0.0433948 
30.8 	 1.99196 	 0.0200039 	 3.17495 	 0.0354975 	 0.433818 	 0.0435447 
31 	 1.99254 	 0.0199242 	 3.17837 	 0.0354897 	 0.434444 	 0.0436269 
31.2 	 1.9931 	 0.0197723 	 3.18186 	 0.0355142 	 0.435084 	 0.0436371 
31.4 	 1.99365 	 0.0196011 	 3.18544 	 0.0356016 	 0.435735 	 0.0436127 
31.6 	 1.99431 	 0.0194445 	 3.18904 	 0.0357776 	 0.436339 	 0.0436511 
31.8 	 1.99522 	 0.0193085 	 3.19264 	 0.0360387 	 0.436822 	 0.0438019 
32 	 1.99645 	 0.0191617 	 3.19625 	 0.0363419 	 0.437172 	 0.0439721 
32.2 	 1.9979 	 0.0189671 	 3.19992 	 0.0366356 	 0.437445 	 0.0440144 
32.4 	 1.99945 	 0.0187209 	 3.2036 	 0.0368866 	 0.437691 	 0.0438336 
32.6 	 2.00105 	 0.018457 	 3.20722 	 0.0370845 	 0.437912 	 0.0434257 
32.8 	 2.0027 	 0.0182254 	 3.21069 	 0.0372413 	 0.438096 	 0.0428977 
33 	 2.00436 	 0.0180643 	 3.21406 	 0.0373785 	 0.43826 	 0.0423964 
33.2 	 2.00596 	 0.0179754 	 3.2174 	 0.0375117 	 0.438445 	 0.0419961 
33.4 	 2.00747 	 0.01793 	 3.22075 	 0.0376607 	 0.438667 	 0.0417256 
33.6 	 2.00885 	 0.0179161 	 3.22417 	 0.0378588 	 0.438948 	 0.0416496 
33.8 	 2.01001 	 0.017964 	 3.22763 	 0.0381241 	 0.439313 	 0.0418213 
34 	 2.01102 	 0.0181111 	 3.23109 	 0.0384282 	 0.439739 	 0.0421706 
34.2 	 2.01207 	 0.0183704 	 3.23444 	 0.0387141 	 0.440143 	 0.042528 
34.4 	 2.01331 	 0.0187591 	 3.23765 	 0.0389492 	 0.440455 	 0.0428174 
34.6 	 2.01473 	 0.0193118 	 3.2408 	 0.0391392 	 0.440711 	 0.0431454 
34.8 	 2.01612 	 0.0200274 	 3.24401 	 0.0393015 	 0.441016 	 0.0436636 
35 	 2.01733 	 0.0208094 	 3.24735 	 0.0394495 	 0.44143 	 0.0443972 
35.2 	 2.01833 	 0.0214947 	 3.25079 	 0.0395843 	 0.441935 	 0.0452181 
35.4 	 2.01913 	 0.0219575 	 3.25431 	 0.0396794 	 0.442517 	 0.0459689 
35.6 	 2.01971 	 0.0221779 	 3.25784 	 0.0396943 	 0.443156 	 0.0465921 
35.8 	 2.02024 	 0.0222366 	 3.26116 	 0.0396094 	 0.443755 	 0.0471089 
36 	 2.02095 	 0.0222376 	 3.26411 	 0.0394406 	 0.444194 	 0.0475024 
36.2 	 2.02195 	 0.0222204 	 3.26671 	 0.0392319 	 0.444446 	 0.0477228 
36.4 	 2.02311 	 0.0221747 	 3.26925 	 0.0390309 	 0.44462 	 0.047799 
36.6 	 2.02417 	 0.0220923 	 3.27201 	 0.0388553 	 0.444891 	 0.0477953 
36.8 	 2.02491 	 0.0219612 	 3.27505 	 0.0386926 	 0.445348 	 0.0476746 
37 	 2.02537 	 0.0217702 	 3.27819 	 0.0385358 	 0.445944 	 0.0473471 
37.2 	 2.02565 	 0.0215444 	 3.28124 	 0.0384008 	 0.446596 	 0.0468252 
37.4 	 2.02582 	 0.0213351 	 3.28419 	 0.0383038 	 0.447266 	 0.0462178 
37.6 	 2.02592 	 0.0211721 	 3.28709 	 0.0382498 	 0.44795 	 0.0456323 
37.8 	 2.02608 	 0.0210324 	 3.28995 	 0.0382563 	 0.448594 	 0.0451373 
38 	 2.0265 	 0.0208665 	 3.29273 	 0.0383523 	 0.449091 	 0.0447586 
38.2 	 2.02724 	 0.0206555 	 3.2953 	 0.038534 	 0.449388 	 0.0444775 
38.4 	 2.02809 	 0.0204195 	 3.29763 	 0.0387404 	 0.449575 	 0.0442098 
38.6 	 2.02864 	 0.0201967 	 3.29977 	 0.0388859 	 0.449843 	 0.0438218 
38.8 	 2.02868 	 0.020036 	 3.30196 	 0.038922 	 0.450353 	 0.0432474 
39 	 2.02838 	 0.0199781 	 3.30445 	 0.0388661 	 0.451098 	 0.0425683 
39.2 	 2.02824 	 0.0200366 	 3.3074 	 0.0387604 	 0.451911 	 0.0419262 
39.4 	 2.02867 	 0.0201858 	 3.31072 	 0.0386255 	 0.452598 	 0.0413974 
39.6 	 2.0298 	 0.0203473 	 3.31417 	 0.038478 	 0.453043 	 0.0409953 
39.8 	 2.03138 	 0.0204398 	 3.31751 	 0.038352 	 0.45327 	 0.0407088 
40 	 2.033 	 0.0204574 	 3.32071 	 0.0382795 	 0.453425 	 0.040521 
40.2 	 2.03436 	 0.0204412 	 3.3238 	 0.0382784 	 0.453639 	 0.0404207 
40.4 	 2.03548 	 0.0204058 	 3.32683 	 0.0383522 	 0.453919 	 0.0403899 
40.6 	 2.03656 	 0.020362 	 3.32971 	 0.0384885 	 0.454168 	 0.0404308 
40.8 	 2.03781 	 0.0203597 	 3.33234 	 0.0386644 	 0.454287 	 0.0405894 
41 	 2.03925 	 0.0204473 	 3.33474 	 0.0388458 	 0.454282 	 0.0408711 
41.2 	 2.04071 	 0.020621 	 3.33715 	 0.0389904 	 0.45429 	 0.0411995 
41.4 	 2.04199 	 0.0208368 	 3.33985 	 0.0390689 	 0.454446 	 0.0414905 
41.6 	 2.0431 	 0.021047 	 3.34294 	 0.0390852 	 0.454776 	 0.0417111 
41.8 	 2.04416 	 0.0212068 	 3.34636 	 0.0390817 	 0.455202 	 0.0418911 
42 	 2.04525 	 0.0212628 	 3.34999 	 0.0391197 	 0.455636 	 0.0420707 
42.2 	 2.04639 	 0.0211656 	 3.35367 	 0.0392368 	 0.456033 	 0.0422159 
42.4 	 2.04757 	 0.0208973 	 3.35726 	 0.0394189 	 0.456361 	 0.0422225 
42.6 	 2.04879 	 0.020509 	 3.36064 	 0.0396078 	 0.456614 	 0.0420532 
42.8 	 2.04993 	 0.0201179 	 3.36375 	 0.0397357 	 0.456845 	 0.0418164 
43 	 2.0509 	 0.0198143 	 3.36652 	 0.0397654 	 0.457082 	 0.0416516 
43.2 	 2.05174 	 0.0196042 	 3.36889 	 0.0397034 	 0.457293 	 0.0416048 
43.4 	 2.05245 	 0.0194699 	 3.37093 	 0.0395815 	 0.457492 	 0.0416401 
43.6 	 2.05294 	 0.0194146 	 3.37278 	 0.0394398 	 0.457741 	 0.0417182 
43.8 	 2.05326 	 0.0194205 	 3.37466 	 0.0393144 	 0.45807 	 0.0418169 
44 	 2.05346 	 0.0194232 	 3.37677 	 0.039219 	 0.458496 	 0.041891 
44.2 	 2.0536 	 0.019354 	 3.37925 	 0.0391417 	 0.459023 	 0.0418616 
44.4 	 2.05379 	 0.0191792 	 3.3821 	 0.0390685 	 0.459606 	 0.0416581 
44.6 	 2.05413 	 0.018914 	 3.38522 	 0.0390082 	 0.460188 	 0.0413001 
44.8 	 2.05461 	 0.0186223 	 3.38841 	 0.0389889 	 0.460727 	 0.0409278 
45 	 2.05519 	 0.0183774 	 3.39149 	 0.039023 	 0.461191 	 0.0406591 
45.2 	 2.0559 	 0.0182205 	 3.39434 	 0.0390866 	 0.461559 	 0.0404568 
45.4 	 2.0567 	 0.018164 	 3.39697 	 0.0391469 	 0.461855 	 0.0402183 
45.6 	 2.0575 	 0.0181956 	 3.39947 	 0.0391949 	 0.462137 	 0.0399147 
45.8 	 2.05822 	 0.0182607 	 3.40194 	 0.039238 	 0.462449 	 0.0395948 
46 	 2.05887 	 0.0182854 	 3.40441 	 0.0392727 	 0.462781 	 0.0393286 
46.2 	 2.05946 	 0.0182365 	 3.40687 	 0.0392826 	 0.463122 	 0.0391846 
46.4 	 2.05996 	 0.0181316 	 3.40928 	 0.0392582 	 0.463475 	 0.03921 
46.6 	 2.06044 	 0.0179929 	 3.41156 	 0.0392021 	 0.463803 	 0.03936 
46.8 	 2.061 	 0.0178234 	 3.41364 	 0.0391309 	 0.464049 	 0.0394982 
47 	 2.06163 	 0.0176148 	 3.41546 	 0.0390828 	 0.464206 	 0.0395334 
47.2 	 2.06219 	 0.0173672 	 3.41711 	 0.0390922 	 0.464343 	 0.0394639 
47.4 	 2.06247 	 0.0171145 	 3.4187 	 0.0391525 	 0.464574 	 0.0392896 
47.6 	 2.06237 	 0.0169232 	 3.42027 	 0.0392356 	 0.464952 	 0.0390053 
47.8 	 2.06198 	 0.0168496 	 3.42173 	 0.0393313 	 0.465429 	 0.0386481 
48 	 2.06139 	 0.0169121 	 3.42302 	 0.0394446 	 0.465958 	 0.0383015 
48.2 	 2.0606 	 0.0171062 	 3.42422 	 0.0395755 	 0.46655 	 0.0380817 
48.4 	 2.05969 	 0.0174169 	 3.42551 	 0.0397118 	 0.46721 	 0.0380828 
48.6 	 2.05886 	 0.0178048 	 3.42699 	 0.0398409 	 0.467886 	 0.0383022 
48.8 	 2.05828 	 0.0182081 	 3.4287 	 0.0399664 	 0.468517 	 0.0386602 
49 	 2.05799 	 0.0185787 	 3.43067 	 0.0401046 	 0.469088 	 0.0390821 
49.2 	 2.05802 	 0.0188964 	 3.43289 	 0.0402651 	 0.469586 	 0.0395266 
49.4 	 2.05848 	 0.0191501 	 3.43539 	 0.0404418 	 0.469975 	 0.0399604 
49.6 	 2.05934 	 0.0193395 	 3.43821 	 0.0406264 	 0.470282 	 0.0403686 
49.8 	 2.06026 	 0.0194817 	 3.44135 	 0.0408214 	 0.470629 	 0.0407688 
50 	 2.06091 	 0.0195893 	 3.44471 	 0.0410317 	 0.471125 	 0.0411579 
50.2 	 2.06115 	 0.0196603 	 3.44815 	 0.0412483 	 0.471786 	 0.0414713 
50.4 	 2.0611 	 0.0196944 	 3.45159 	 0.0414544 	 0.472559 	 0.0416452 
50.6 	 2.06106 	 0.019701 	 3.45506 	 0.0416444 	 0.473336 	 0.0416873 
50.8 	 2.06145 	 0.019681 	 3.45851 	 0.0418315 	 0.47395 	 0.0416404 
51 	 2.06253 	 0.0196209 	 3.4618 	 0.0420437 	 0.474259 	 0.041538 
51.2 	 2.06419 	 0.0195379 	 3.46486 	 0.0423077 	 0.474288 	 0.0414615 
51.4 	 2.06601 	 0.019499 	 3.46779 	 0.042625 	 0.474221 	 0.041564 
51.6 	 2.06765 	 0.0195522 	 3.47072 	 0.0429652 	 0.474218 	 0.04194 
51.8 	 2.06906 	 0.0196724 	 3.47371 	 0.0432774 	 0.474315 	 0.042502 
52 	 2.07033 	 0.0197964 	 3.47668 	 0.0435132 	 0.47447 	 0.043037 
52.2 	 2.07159 	 0.0198802 	 3.47952 	 0.0436564 	 0.474609 	 0.0433768 
52.4 	 2.07302 	 0.0199265 	 3.48216 	 0.0437303 	 0.474655 	 0.0434836 
52.6 	 2.07478 	 0.0199647 	 3.48453 	 0.0437672 	 0.474532 	 0.0433757 
52.8 	 2.07697 	 0.019998 	 3.48656 	 0.0437907 	 0.474186 	 0.0430564 
53 	 2.0795 	 0.0199908 	 3.48827 	 0.0438271 	 0.473644 	 0.0425766 
53.2 	 2.08211 	 0.0199136 	 3.48984 	 0.0438978 	 0.473025 	 0.0420714 
53.4 	 2.0846 	 0.0197699 	 3.49142 	 0.043992 	 0.472443 	 0.0416566 
53.6 	 2.08695 	 0.0195761 	 3.49303 	 0.0440698 	 0.471906 	 0.0413308 
53.8 	 2.08924 	 0.0193439 	 3.49458 	 0.0440971 	 0.471379 	 0.0410152 
54 	 2.09136 	 0.0190993 	 3.49613 	 0.0440717 	 0.470922 	 0.0406669 
